[Header]
Application Name	LabSolutions
Version	5.110
Data File Name	C:\LabSolutions\Data\デジタルケミカルラボ\脱水反応\0.1mL-min.lcd
Output Date	2023/09/28
Output Time	10:12:15

[File Information]
Type	Data File
Generated	2023/09/19 18:36:16
Generated by	System Administrator
Modified	2023/09/19 18:46:41
Modified by	System Administrator

[Sample Information]
Operator Name	System Administrator
Acquired	2023/09/19 18:36:40
Sample Type	0:Unknown
Level	0
Sample Name	0.1mL/min
Sample ID	
ISTD Amount1	1
ISTD Amount2	1
ISTD Amount3	1
ISTD Amount4	1
ISTD Amount5	1
ISTD Amount6	1
ISTD Amount7	1
ISTD Amount8	1
ISTD Amount9	1
ISTD Amount10	1
ISTD Amount11	1
ISTD Amount12	1
ISTD Amount13	1
ISTD Amount14	1
ISTD Amount15	1
ISTD Amount16	1
ISTD Amount17	1
ISTD Amount18	1
ISTD Amount19	1
ISTD Amount20	1
ISTD Amount21	1
ISTD Amount22	1
ISTD Amount23	1
ISTD Amount24	1
ISTD Amount25	1
ISTD Amount26	1
ISTD Amount27	1
ISTD Amount28	1
ISTD Amount29	1
ISTD Amount30	1
ISTD Amount31	1
ISTD Amount32	1
Sample Amount	1
Dilution Factor	1
Vial#	2
Injection Volume	0.8

[Original Files]
Data File	C:\LabSolutions\Data\デジタルケミカルラボ\脱水反応\0.1mL-min.lcd
Method File	C:\LabSolutions\Data\デジタルケミカルラボ\脱水反応\脱水反応(UHPLC).lcm
Batch File	C:\LabSolutions\Data\デジタルケミカルラボ\Grignard反応\Grignard反応.lcb
Report Format File	C:\LabSolutions\System\DEFAULT.lsr

[File Description]


[Configuration]
Instrument Name	HPLC
Instrument #	1
Line #	1
# of Detectors	1
Detector ID	Detector A
Detector Name	検出器A
# of Channels	1

[Peak Table(Detector A)]
# of Peaks	10
Peak#	R.Time	I.Time	F.Time	Area	Height	A/H	Conc.	Mark	ID#	Name	k'	Plate #	Plate Ht.	Tailing	Resolution	Sep.Factor	Area Ratio	Height Ratio	Conc. %	Norm Conc.
1	0.826	0.767	1.092	1345057	547428	2.457	0.000	SV 			0.000	1911	78.476	1.481	0.000	0.000	0	0	0.000	0.000
2	1.471	1.400	1.608	296527	94297	3.145	0.000	   			0.780	3831	39.155	1.316	7.551	0.000	0	0	0.000	0.000
3	1.756	1.608	1.908	1084	1487871	3.471	0.000	   		product	1.125	4636	32.355	1.228	2.877	1.442	0	0	0.000	0.000
4	1.951	1.908	2.075	27734	4142	6.696	0.000	 V 			1.361	1195	125.523	0.000	1.190	1.211	0	0	0.000	0.000
5	2.271	2.167	2.433	66501	15522	4.284	0.000	 V 			1.748	5544	27.055	0.969	1.837	1.284	0	0	0.000	0.000
6	3.351	3.192	3.642	2459	525811	5.017	0.000	   		product	3.056	8253	18.175	1.142	8.019	1.748	0	0	0.000	0.000
7	4.553	4.408	4.725	25601	3867	6.620	0.000	   			4.510	9491	15.804	1.070	7.185	1.476	0	0	0.000	0.000
8	5.247	5.042	5.500	1289448	89053	7.494	0.000	   		product	5.350	10198	14.708	1.089	3.513	1.186	0	0	0.000	0.000
9	6.422	6.250	6.683	30834	2979	10.349	0.000	   			6.771	7981	18.794	1.202	4.743	1.266	0	0	0.000	0.000
10	9.584	9.242	9.967	18182	95732	13.977	0.000	   		product	10.598	10607	14.142	1.124	9.586	1.565	0	0	0.000	0.000

[Compound Results(Detector A)]
# of IDs	1
ID#	Name	R.Time	Area	Height	Conc.	Curve	3rd	2nd	1st	Constant	Area Ratio	Height Ratio	Conc. %	Norm Conc.
1	カフェイン	0.000	0	0	0.000	Linear	0.000000e+00	0.000000e+00	0.000000e+00	0.000000e+00	0	0	0.000	0.000

[LC Chromatogram(Detector A-Ch1)]
Interval(msec)	500
# of Points	1201
Start Time(min)	0.000
End Time(min)	10.000
Intensity Units	mV
Intensity Multiplier	0.001
Wavelength(nm)	254nm
R.Time (min)	Intensity
0.00000	-1902
0.00833	-1902
0.01667	-286
0.02500	-57
0.03333	-95
0.04167	-130
0.05000	-161
0.05833	-191
0.06667	-218
0.07500	-245
0.08333	-273
0.09167	-300
0.10000	-325
0.10833	-348
0.11667	-370
0.12500	-391
0.13333	-410
0.14167	-426
0.15000	-440
0.15833	-450
0.16667	-460
0.17500	-469
0.18333	-477
0.19167	-483
0.20000	-489
0.20833	-494
0.21667	-497
0.22500	-500
0.23333	-497
0.24167	-486
0.25000	-470
0.25833	-450
0.26667	-432
0.27500	-416
0.28333	-411
0.29167	-413
0.30000	-419
0.30833	-428
0.31667	-439
0.32500	-423
0.33333	-314
0.34167	-208
0.35000	-186
0.35833	-222
0.36667	-269
0.37500	-285
0.38333	-286
0.39167	-299
0.40000	-320
0.40833	-342
0.41667	-298
0.42500	-74
0.43333	100
0.44167	62
0.45000	-62
0.45833	-181
0.46667	-269
0.47500	-332
0.48333	-375
0.49167	-405
0.50000	-427
0.50833	-444
0.51667	-455
0.52500	-457
0.53333	-461
0.54167	-464
0.55000	-462
0.55833	-458
0.56667	-435
0.57500	-105
0.58333	691
0.59167	1148
0.60000	1117
0.60833	862
0.61667	551
0.62500	252
0.63333	6
0.64167	-178
0.65000	-302
0.65833	-381
0.66667	-430
0.67500	-452
0.68333	-416
0.69167	-266
0.70000	31
0.70833	538
0.71667	1162
0.72500	1588
0.73333	1519
0.74167	1069
0.75000	428
0.75833	-35
0.76667	-200
0.77500	-178
0.78333	-19
0.79167	2459
0.80000	40195
0.80833	203646
0.81667	439811
0.82500	547083
0.83333	490606
0.84167	364587
0.85000	242143
0.85833	149591
0.86667	87912
0.87500	49843
0.88333	27544
0.89167	14968
0.90000	8072
0.90833	4367
0.91667	2402
0.92500	1363
0.93333	816
0.94167	532
0.95000	421
0.95833	460
0.96667	564
0.97500	603
0.98333	537
0.99167	414
1.00000	283
1.00833	171
1.01667	89
1.02500	34
1.03333	-3
1.04167	-32
1.05000	-56
1.05833	-80
1.06667	-105
1.07500	-128
1.08333	-146
1.09167	-157
1.10000	-160
1.10833	-151
1.11667	-119
1.12500	-64
1.13333	-12
1.14167	7
1.15000	-9
1.15833	-47
1.16667	-88
1.17500	-121
1.18333	-140
1.19167	-148
1.20000	-146
1.20833	-143
1.21667	-140
1.22500	-135
1.23333	-129
1.24167	-123
1.25000	-113
1.25833	-97
1.26667	-79
1.27500	-65
1.28333	-59
1.29167	-54
1.30000	-37
1.30833	6
1.31667	75
1.32500	143
1.33333	176
1.34167	165
1.35000	132
1.35833	100
1.36667	69
1.37500	33
1.38333	-7
1.39167	-43
1.40000	-67
1.40833	-63
1.41667	110
1.42500	1335
1.43333	6814
1.44167	22116
1.45000	48809
1.45833	77417
1.46667	94180
1.47500	93505
1.48333	79573
1.49167	60213
1.50000	41661
1.50833	26927
1.51667	16521
1.52500	9732
1.53333	5535
1.54167	3033
1.55000	1581
1.55833	759
1.56667	309
1.57500	70
1.58333	-59
1.59167	-139
1.60000	-193
1.60833	-215
1.61667	-125
1.62500	394
1.63333	2168
1.64167	6415
1.65000	13691
1.65833	22538
1.66667	29673
1.67500	32316
1.68333	30400
1.69167	27277
1.70000	32367
1.70833	70725
1.71667	191060
1.72500	442962
1.73333	815455
1.74167	1201459
1.75000	1454242
1.75833	1487652
1.76667	1322529
1.77500	1049051
1.78333	759953
1.79167	512601
1.80000	326992
1.80833	199785
1.81667	118201
1.82500	68450
1.83333	39273
1.84167	22670
1.85000	13426
1.85833	8349
1.86667	5568
1.87500	4030
1.88333	3161
1.89167	2665
1.90000	2415
1.90833	2386
1.91667	2587
1.92500	2983
1.93333	3444
1.94167	3792
1.95000	3917
1.95833	3850
1.96667	3716
1.97500	3609
1.98333	3518
1.99167	3361
2.00000	3081
2.00833	2693
2.01667	2260
2.02500	1850
2.03333	1503
2.04167	1233
2.05000	1037
2.05833	902
2.06667	820
2.07500	785
2.08333	789
2.09167	818
2.10000	851
2.10833	862
2.11667	834
2.12500	769
2.13333	681
2.14167	588
2.15000	505
2.15833	443
2.16667	413
2.17500	430
2.18333	509
2.19167	655
2.20000	873
2.20833	1208
2.21667	1810
2.22500	2947
2.23333	4888
2.24167	7661
2.25000	10858
2.25833	13677
2.26667	15287
2.27500	15260
2.28333	13758
2.29167	11349
2.30000	8680
2.30833	6229
2.31667	4238
2.32500	2752
2.33333	1711
2.34167	1016
2.35000	566
2.35833	279
2.36667	99
2.37500	-15
2.38333	-87
2.39167	-136
2.40000	-169
2.40833	-193
2.41667	-212
2.42500	-226
2.43333	-240
2.44167	-251
2.45000	-262
2.45833	-271
2.46667	-279
2.47500	-285
2.48333	-291
2.49167	-297
2.50000	-301
2.50833	-305
2.51667	-309
2.52500	-314
2.53333	-318
2.54167	-323
2.55000	-328
2.55833	-332
2.56667	-337
2.57500	-342
2.58333	-347
2.59167	-352
2.60000	-357
2.60833	-362
2.61667	-366
2.62500	-370
2.63333	-373
2.64167	-378
2.65000	-381
2.65833	-385
2.66667	-389
2.67500	-392
2.68333	-394
2.69167	-396
2.70000	-397
2.70833	-398
2.71667	-398
2.72500	-400
2.73333	-404
2.74167	-409
2.75000	-415
2.75833	-420
2.76667	-424
2.77500	-429
2.78333	-435
2.79167	-442
2.80000	-447
2.80833	-451
2.81667	-452
2.82500	-451
2.83333	-448
2.84167	-441
2.85000	-434
2.85833	-429
2.86667	-428
2.87500	-430
2.88333	-434
2.89167	-441
2.90000	-448
2.90833	-456
2.91667	-464
2.92500	-472
2.93333	-481
2.94167	-489
2.95000	-497
2.95833	-505
2.96667	-512
2.97500	-518
2.98333	-523
2.99167	-528
3.00000	-531
3.00833	-531
3.01667	-528
3.02500	-523
3.03333	-516
3.04167	-507
3.05000	-499
3.05833	-489
3.06667	-480
3.07500	-470
3.08333	-459
3.09167	-447
3.10000	-436
3.10833	-424
3.11667	-412
3.12500	-398
3.13333	-381
3.14167	-360
3.15000	-334
3.15833	-305
3.16667	-271
3.17500	-233
3.18333	-193
3.19167	-153
3.20000	-118
3.20833	-91
3.21667	-70
3.22500	-36
3.23333	67
3.24167	390
3.25000	1291
3.25833	3565
3.26667	8782
3.27500	19621
3.28333	39944
3.29167	74206
3.30000	125997
3.30833	195948
3.31667	279800
3.32500	367820
3.33333	446480
3.34167	502212
3.35000	525666
3.35833	514445
3.36667	473171
3.37500	411236
3.38333	339576
3.39167	267865
3.40000	202915
3.40833	148349
3.41667	105151
3.42500	72563
3.43333	48940
3.44167	32380
3.45000	21097
3.45833	13598
3.46667	8719
3.47500	5603
3.48333	3644
3.49167	2425
3.50000	1669
3.50833	1197
3.51667	892
3.52500	682
3.53333	527
3.54167	405
3.55000	303
3.55833	216
3.56667	142
3.57500	81
3.58333	31
3.59167	-10
3.60000	-42
3.60833	-66
3.61667	-87
3.62500	-104
3.63333	-118
3.64167	-131
3.65000	-141
3.65833	-151
3.66667	-160
3.67500	-169
3.68333	-178
3.69167	-189
3.70000	-199
3.70833	-210
3.71667	-221
3.72500	-232
3.73333	-241
3.74167	-248
3.75000	-252
3.75833	-251
3.76667	-243
3.77500	-224
3.78333	-191
3.79167	-141
3.80000	-72
3.80833	14
3.81667	115
3.82500	220
3.83333	319
3.84167	399
3.85000	450
3.85833	464
3.86667	443
3.87500	391
3.88333	318
3.89167	237
3.90000	160
3.90833	95
3.91667	45
3.92500	11
3.93333	-12
3.94167	-26
3.95000	-39
3.95833	-55
3.96667	-75
3.97500	-100
3.98333	-128
3.99167	-156
4.00000	-184
4.00833	-207
4.01667	-228
4.02500	-245
4.03333	-260
4.04167	-275
4.05000	-290
4.05833	-305
4.06667	-322
4.07500	-341
4.08333	-360
4.09167	-381
4.10000	-401
4.10833	-420
4.11667	-436
4.12500	-449
4.13333	-460
4.14167	-468
4.15000	-475
4.15833	-480
4.16667	-483
4.17500	-486
4.18333	-489
4.19167	-491
4.20000	-493
4.20833	-493
4.21667	-491
4.22500	-489
4.23333	-486
4.24167	-484
4.25000	-482
4.25833	-480
4.26667	-479
4.27500	-478
4.28333	-479
4.29167	-481
4.30000	-486
4.30833	-490
4.31667	-495
4.32500	-500
4.33333	-506
4.34167	-510
4.35000	-513
4.35833	-516
4.36667	-518
4.37500	-516
4.38333	-512
4.39167	-504
4.40000	-493
4.40833	-479
4.41667	-460
4.42500	-438
4.43333	-407
4.44167	-359
4.45000	-288
4.45833	-183
4.46667	-31
4.47500	182
4.48333	464
4.49167	816
4.50000	1230
4.50833	1686
4.51667	2155
4.52500	2596
4.53333	2968
4.54167	3232
4.55000	3363
4.55833	3347
4.56667	3192
4.57500	2917
4.58333	2557
4.59167	2148
4.60000	1725
4.60833	1318
4.61667	946
4.62500	622
4.63333	349
4.64167	128
4.65000	-47
4.65833	-183
4.66667	-286
4.67500	-364
4.68333	-421
4.69167	-461
4.70000	-491
4.70833	-511
4.71667	-525
4.72500	-534
4.73333	-539
4.74167	-542
4.75000	-545
4.75833	-546
4.76667	-547
4.77500	-546
4.78333	-546
4.79167	-547
4.80000	-548
4.80833	-549
4.81667	-550
4.82500	-551
4.83333	-553
4.84167	-555
4.85000	-557
4.85833	-558
4.86667	-559
4.87500	-560
4.88333	-562
4.89167	-563
4.90000	-563
4.90833	-564
4.91667	-565
4.92500	-567
4.93333	-568
4.94167	-569
4.95000	-570
4.95833	-571
4.96667	-572
4.97500	-572
4.98333	-572
4.99167	-571
5.00000	-570
5.00833	-568
5.01667	-566
5.02500	-561
5.03333	-554
5.04167	-543
5.05000	-528
5.05833	-501
5.06667	-460
5.07500	-394
5.08333	-287
5.09167	-111
5.10000	180
5.10833	654
5.11667	1409
5.12500	2576
5.13333	4320
5.14167	6831
5.15000	10304
5.15833	14911
5.16667	20767
5.17500	27885
5.18333	36149
5.19167	45282
5.20000	54856
5.20833	64308
5.21667	72995
5.22500	80269
5.23333	85556
5.24167	88438
5.25000	88711
5.25833	86413
5.26667	81811
5.27500	75353
5.28333	67601
5.29167	59147
5.30000	50543
5.30833	42251
5.31667	34608
5.32500	27822
5.33333	21992
5.34167	17118
5.35000	13139
5.35833	9957
5.36667	7455
5.37500	5517
5.38333	4035
5.39167	2911
5.40000	2067
5.40833	1439
5.41667	974
5.42500	634
5.43333	389
5.44167	215
5.45000	96
5.45833	16
5.46667	-35
5.47500	-65
5.48333	-80
5.49167	-88
5.50000	-92
5.50833	-96
5.51667	-102
5.52500	-113
5.53333	-130
5.54167	-152
5.55000	-179
5.55833	-209
5.56667	-241
5.57500	-273
5.58333	-303
5.59167	-331
5.60000	-357
5.60833	-379
5.61667	-397
5.62500	-412
5.63333	-424
5.64167	-433
5.65000	-441
5.65833	-448
5.66667	-453
5.67500	-456
5.68333	-458
5.69167	-460
5.70000	-462
5.70833	-462
5.71667	-462
5.72500	-461
5.73333	-460
5.74167	-459
5.75000	-457
5.75833	-453
5.76667	-449
5.77500	-442
5.78333	-432
5.79167	-421
5.80000	-407
5.80833	-389
5.81667	-366
5.82500	-339
5.83333	-309
5.84167	-276
5.85000	-242
5.85833	-209
5.86667	-178
5.87500	-150
5.88333	-126
5.89167	-110
5.90000	-100
5.90833	-99
5.91667	-104
5.92500	-116
5.93333	-132
5.94167	-152
5.95000	-175
5.95833	-197
5.96667	-221
5.97500	-242
5.98333	-261
5.99167	-279
6.00000	-296
6.00833	-310
6.01667	-324
6.02500	-335
6.03333	-345
6.04167	-355
6.05000	-364
6.05833	-372
6.06667	-380
6.07500	-388
6.08333	-395
6.09167	-401
6.10000	-405
6.10833	-408
6.11667	-410
6.12500	-413
6.13333	-413
6.14167	-413
6.15000	-411
6.15833	-408
6.16667	-403
6.17500	-398
6.18333	-392
6.19167	-385
6.20000	-378
6.20833	-369
6.21667	-360
6.22500	-350
6.23333	-337
6.24167	-323
6.25000	-304
6.25833	-281
6.26667	-248
6.27500	-205
6.28333	-148
6.29167	-74
6.30000	21
6.30833	141
6.31667	288
6.32500	462
6.33333	662
6.34167	885
6.35000	1124
6.35833	1373
6.36667	1621
6.37500	1861
6.38333	2081
6.39167	2269
6.40000	2418
6.40833	2521
6.41667	2574
6.42500	2578
6.43333	2534
6.44167	2448
6.45000	2327
6.45833	2179
6.46667	2012
6.47500	1834
6.48333	1649
6.49167	1466
6.50000	1287
6.50833	1115
6.51667	950
6.52500	792
6.53333	643
6.54167	501
6.55000	368
6.55833	245
6.56667	131
6.57500	25
6.58333	-69
6.59167	-153
6.60000	-226
6.60833	-290
6.61667	-344
6.62500	-390
6.63333	-429
6.64167	-461
6.65000	-487
6.65833	-508
6.66667	-525
6.67500	-539
6.68333	-550
6.69167	-559
6.70000	-567
6.70833	-574
6.71667	-579
6.72500	-583
6.73333	-586
6.74167	-590
6.75000	-592
6.75833	-596
6.76667	-598
6.77500	-600
6.78333	-602
6.79167	-603
6.80000	-605
6.80833	-606
6.81667	-606
6.82500	-605
6.83333	-605
6.84167	-606
6.85000	-606
6.85833	-606
6.86667	-606
6.87500	-605
6.88333	-605
6.89167	-603
6.90000	-602
6.90833	-601
6.91667	-600
6.92500	-599
6.93333	-599
6.94167	-598
6.95000	-597
6.95833	-597
6.96667	-597
6.97500	-597
6.98333	-596
6.99167	-597
7.00000	-598
7.00833	-599
7.01667	-600
7.02500	-601
7.03333	-601
7.04167	-601
7.05000	-602
7.05833	-602
7.06667	-602
7.07500	-603
7.08333	-604
7.09167	-604
7.10000	-605
7.10833	-606
7.11667	-606
7.12500	-606
7.13333	-608
7.14167	-610
7.15000	-610
7.15833	-611
7.16667	-612
7.17500	-612
7.18333	-612
7.19167	-612
7.20000	-613
7.20833	-613
7.21667	-613
7.22500	-613
7.23333	-613
7.24167	-612
7.25000	-612
7.25833	-611
7.26667	-611
7.27500	-610
7.28333	-609
7.29167	-608
7.30000	-608
7.30833	-609
7.31667	-611
7.32500	-612
7.33333	-614
7.34167	-617
7.35000	-619
7.35833	-620
7.36667	-623
7.37500	-626
7.38333	-628
7.39167	-630
7.40000	-631
7.40833	-633
7.41667	-635
7.42500	-637
7.43333	-639
7.44167	-640
7.45000	-642
7.45833	-643
7.46667	-644
7.47500	-645
7.48333	-644
7.49167	-644
7.50000	-644
7.50833	-643
7.51667	-642
7.52500	-641
7.53333	-639
7.54167	-636
7.55000	-633
7.55833	-630
7.56667	-627
7.57500	-624
7.58333	-622
7.59167	-620
7.60000	-618
7.60833	-616
7.61667	-613
7.62500	-612
7.63333	-611
7.64167	-610
7.65000	-610
7.65833	-610
7.66667	-610
7.67500	-611
7.68333	-612
7.69167	-613
7.70000	-613
7.70833	-614
7.71667	-614
7.72500	-614
7.73333	-614
7.74167	-616
7.75000	-616
7.75833	-616
7.76667	-614
7.77500	-613
7.78333	-612
7.79167	-611
7.80000	-611
7.80833	-611
7.81667	-612
7.82500	-614
7.83333	-617
7.84167	-618
7.85000	-620
7.85833	-623
7.86667	-626
7.87500	-628
7.88333	-630
7.89167	-633
7.90000	-636
7.90833	-639
7.91667	-642
7.92500	-643
7.93333	-645
7.94167	-647
7.95000	-649
7.95833	-651
7.96667	-652
7.97500	-654
7.98333	-655
7.99167	-656
8.00000	-656
8.00833	-656
8.01667	-656
8.02500	-656
8.03333	-657
8.04167	-657
8.05000	-658
8.05833	-658
8.06667	-658
8.07500	-658
8.08333	-658
8.09167	-658
8.10000	-657
8.10833	-658
8.11667	-658
8.12500	-659
8.13333	-659
8.14167	-658
8.15000	-659
8.15833	-658
8.16667	-657
8.17500	-657
8.18333	-657
8.19167	-656
8.20000	-656
8.20833	-655
8.21667	-656
8.22500	-658
8.23333	-659
8.24167	-661
8.25000	-663
8.25833	-663
8.26667	-662
8.27500	-661
8.28333	-661
8.29167	-662
8.30000	-663
8.30833	-663
8.31667	-663
8.32500	-663
8.33333	-662
8.34167	-663
8.35000	-663
8.35833	-663
8.36667	-662
8.37500	-661
8.38333	-660
8.39167	-659
8.40000	-659
8.40833	-658
8.41667	-658
8.42500	-657
8.43333	-657
8.44167	-658
8.45000	-658
8.45833	-658
8.46667	-658
8.47500	-658
8.48333	-657
8.49167	-658
8.50000	-659
8.50833	-660
8.51667	-660
8.52500	-660
8.53333	-660
8.54167	-661
8.55000	-662
8.55833	-663
8.56667	-663
8.57500	-664
8.58333	-664
8.59167	-663
8.60000	-664
8.60833	-663
8.61667	-663
8.62500	-663
8.63333	-665
8.64167	-665
8.65000	-665
8.65833	-665
8.66667	-666
8.67500	-666
8.68333	-665
8.69167	-665
8.70000	-665
8.70833	-665
8.71667	-665
8.72500	-666
8.73333	-666
8.74167	-667
8.75000	-667
8.75833	-667
8.76667	-668
8.77500	-668
8.78333	-667
8.79167	-667
8.80000	-667
8.80833	-667
8.81667	-668
8.82500	-669
8.83333	-669
8.84167	-668
8.85000	-667
8.85833	-667
8.86667	-668
8.87500	-669
8.88333	-670
8.89167	-670
8.90000	-670
8.90833	-670
8.91667	-670
8.92500	-671
8.93333	-671
8.94167	-671
8.95000	-671
8.95833	-671
8.96667	-671
8.97500	-670
8.98333	-670
8.99167	-670
9.00000	-670
9.00833	-671
9.01667	-671
9.02500	-671
9.03333	-671
9.04167	-671
9.05000	-672
9.05833	-672
9.06667	-673
9.07500	-673
9.08333	-673
9.09167	-674
9.10000	-674
9.10833	-675
9.11667	-675
9.12500	-673
9.13333	-672
9.14167	-672
9.15000	-671
9.15833	-670
9.16667	-669
9.17500	-666
9.18333	-664
9.19167	-660
9.20000	-656
9.20833	-650
9.21667	-642
9.22500	-631
9.23333	-617
9.24167	-597
9.25000	-573
9.25833	-541
9.26667	-499
9.27500	-443
9.28333	-369
9.29167	-271
9.30000	-141
9.30833	30
9.31667	255
9.32500	546
9.33333	920
9.34167	1399
9.35000	2005
9.35833	2763
9.36667	3703
9.37500	4856
9.38333	6252
9.39167	7928
9.40000	9915
9.40833	12242
9.41667	14936
9.42500	18016
9.43333	21493
9.44167	25371
9.45000	29637
9.45833	34267
9.46667	39223
9.47500	44451
9.48333	49883
9.49167	55437
9.50000	61018
9.50833	66525
9.51667	71847
9.52500	76871
9.53333	81487
9.54167	85589
9.55000	89084
9.55833	91889
9.56667	93939
9.57500	95191
9.58333	95623
9.59167	95235
9.60000	94049
9.60833	92108
9.61667	89473
9.62500	86220
9.63333	82439
9.64167	78228
9.65000	73687
9.65833	68915
9.66667	64012
9.67500	59070
9.68333	54172
9.69167	49390
9.70000	44785
9.70833	40406
9.71667	36289
9.72500	32458
9.73333	28927
9.74167	25701
9.75000	22776
9.75833	20140
9.76667	17780
9.77500	15677
9.78333	13811
9.79167	12159
9.80000	10699
9.80833	9412
9.81667	8277
9.82500	7276
9.83333	6390
9.84167	5606
9.85000	4912
9.85833	4296
9.86667	3748
9.87500	3260
9.88333	2827
9.89167	2442
9.90000	2099
9.90833	1794
9.91667	1524
9.92500	1284
9.93333	1071
9.94167	882
9.95000	715
9.95833	568
9.96667	438
9.97500	323
9.98333	221
9.99167	132
10.00000	54

